Frequency /cm-1,Intensity /km mol-1
44.24805,0.00229739999501
45.24805,0.00256221648391
46.24805,0.00285508300231
47.24805,0.00317866945451
48.24805,0.00353586529284
49.24805,0.00392979382859
50.24805,0.00436382708906
51.24805,0.0048416012005
52.24805,0.00536703227133
53.24805,0.00594433274391
54.24805,0.00657802817662
55.24805,0.00727297441107
56.24805,0.00803437507209
57.24805,0.00886779934018
58.24805,0.00977919992818
59.24805,0.0107749311854
60.24805,0.0118617672434
61.24805,0.0130469201089
62.24805,0.0143380575997
63.24805,0.0157433210103
64.24805,0.0172713423829
65.24805,0.018931261252
66.24805,0.0207327407198
67.24805,0.0226859827082
68.24805,0.0248017422279
69.24805,0.0270913404917
70.24805,0.0295666766923
71.24805,0.0322402382572
72.24805,0.0351251093823
73.24805,0.0382349776431
74.24805,0.0415841384723
75.24805,0.0451874972888
76.24805,0.0490605690601
77.24805,0.0532194750733
78.24805,0.0576809366931
79.24805,0.0624622658808
80.24805,0.0675813522507
81.24805,0.0730566464461
82.24805,0.0789071396171
83.24805,0.0851523387938
84.24805,0.0918122379539
85.24805,0.0989072845981
86.24805,0.106458341656
87.24805,0.114486644566
88.24805,0.123013753383
89.24805,0.132061499802
90.24805,0.141651928981
91.24805,0.15180723612
92.24805,0.162549697714
93.24805,0.173901597498
94.24805,0.185885147079
95.24805,0.198522401317
96.24805,0.211835168533
97.24805,0.22584491569
98.24805,0.240572668685
99.24805,0.256038907991
100.24805,0.272263459869
101.24805,0.289265383478
102.24805,0.307062854195
103.24805,0.325673043548
104.24805,0.345111996187
105.24805,0.365394504371
106.24805,0.386533980489
107.24805,0.408542328184
108.24805,0.431429812682
109.24805,0.455204930975
110.24805,0.479874282546
111.24805,0.505442441353
112.24805,0.531911829818
113.24805,0.559282595618
114.24805,0.587552492067
115.24805,0.616716762927
116.24805,0.646768032483
117.24805,0.677696201728
118.24805,0.709488351529
119.24805,0.742128653618
120.24805,0.775598290251
121.24805,0.809875383379
122.24805,0.844934934145
123.24805,0.880748773481
124.24805,0.91728552457
125.24805,0.95451057788
126.24805,0.992386079438
127.24805,1.03087093295
128.24805,1.06992081633
129.24805,1.10948821309
130.24805,1.14952245906
131.24805,1.1899698047
132.24805,1.23077349331
133.24805,1.27187385524
134.24805,1.31320841828
135.24805,1.35471203398
136.24805,1.39631702006
137.24805,1.43795331841
138.24805,1.47954866852
139.24805,1.52102879581
140.24805,1.5623176143
141.24805,1.60333744311
142.24805,1.6440092358
143.24805,1.68425282191
144.24805,1.7239871596
145.24805,1.76313059849
146.24805,1.80160115137
147.24805,1.83931677374
148.24805,1.87619564983
149.24805,1.9121564837
150.24805,1.94711879401
151.24805,1.98100321109
152.24805,2.01373177462
153.24805,2.04522823052
154.24805,2.07541832543
155.24805,2.10423009712
156.24805,2.13159415946
157.24805,2.15744398006
158.24805,2.18171614938
159.24805,2.20435063949
160.24805,2.22529105121
161.24805,2.24448484807
162.24805,2.26188357583
163.24805,2.27744306623
164.24805,2.29112362377
165.24805,2.30289019443
166.24805,2.31271251534
167.24805,2.32056524443
168.24805,2.32642806943
169.24805,2.33028579536
170.24805,2.33212841021
171.24805,2.33195112825
172.24805,2.32975441069
173.24805,2.32554396378
174.24805,2.31933071408
175.24805,2.31113076127
176.24805,2.30096530865
177.24805,2.2888605718
178.24805,2.27484766603
179.24805,2.2589624731
180.24805,2.24124548824
181.24805,2.22174164818
182.24805,2.2005001414
183.24805,2.17757420153
184.24805,2.15302088528
185.24805,2.12690083614
186.24805,2.09927803514
187.24805,2.07021954025
188.24805,2.0397952158
189.24805,2.00807745346
190.24805,1.9751408864
191.24805,1.94106209813
192.24805,1.90591932762
193.24805,1.86979217237
194.24805,1.83276129085
195.24805,1.79490810597
196.24805,1.75631451107
197.24805,1.71706257985
198.24805,1.67723428168
199.24805,1.63691120371
200.24805,1.59617428089
201.24805,1.55510353532
202.24805,1.51377782591
203.24805,1.47227460937
204.24805,1.43066971363
205.24805,1.38903712431
206.24805,1.34744878521
207.24805,1.30597441326
208.24805,1.26468132858
209.24805,1.22363430012
210.24805,1.18289540704
211.24805,1.14252391623
212.24805,1.10257617596
213.24805,1.06310552581
214.24805,1.02416222268
215.24805,0.9857933828
216.24805,0.948042939414
217.24805,0.910951615915
218.24805,0.874556913896
219.24805,0.838893115707
220.24805,0.80399130095
221.24805,0.76987937629
222.24805,0.736582117946
223.24805,0.704121226134
224.24805,0.672515390728
225.24805,0.641780367355
226.24805,0.611929063129
227.24805,0.582971631187
228.24805,0.55491557321
229.24805,0.527765849072
230.24805,0.501524992788
231.24805,0.476193233911
232.24805,0.451768623569
233.24805,0.42824716432
234.24805,0.405622943033
235.24805,0.383888266039
236.24805,0.363033795813
237.24805,0.343048688472
238.24805,0.323920731424
239.24805,0.305636480531
240.24805,0.288181396191
241.24805,0.271539977779
242.24805,0.255695895929
243.24805,0.240632122189
244.24805,0.226331055614
245.24805,0.212774645908
246.24805,0.199944512753
247.24805,0.187822061048
248.24805,0.176388591747
249.24805,0.165625408106
250.24805,0.155513917113
251.24805,0.146035725957
252.24805,0.137172733405
253.24805,0.128907215989
254.24805,0.121221908931
255.24805,0.114100081767
256.24805,0.107525608638
257.24805,0.101483033268
258.24805,0.095957628615
259.24805,0.0909354512562
260.24805,0.0864033905367
261.24805,0.0823492125404
262.24805,0.0787615989478
263.24805,0.075630180851
264.24805,0.0729455675992
265.24805,0.0706993707507
266.24805,0.0688842232097
267.24805,0.0674937936231
268.24805,0.066522796111
269.24805,0.0659669954032
270.24805,0.0658232074463
271.24805,0.0660892955457
272.24805,0.0667641620983
273.24805,0.067847735968
274.24805,0.0693409555512
275.24805,0.0712457475733
276.24805,0.0735650016553
277.24805,0.0763025406821
278.24805,0.0794630870056
279.24805,0.0830522245111
280.24805,0.0870763565752
281.24805,0.0915426599469
282.24805,0.0964590345824
283.24805,0.101834049471
284.24805,0.107676884496
285.24805,0.113997268376
286.24805,0.120805412757
287.24805,0.128111942511
288.24805,0.135927822343
289.24805,0.144264279797
290.24805,0.153132724784
291.24805,0.162544665761
292.24805,0.172511622736
293.24805,0.183045037262
294.24805,0.19415617964
295.24805,0.205856053547
296.24805,0.218155298362
297.24805,0.231064089464
298.24805,0.244592036817
299.24805,0.258748082183
300.24805,0.273540395342
301.24805,0.288976269695
302.24805,0.305062017708
303.24805,0.321802866625
304.24805,0.339202854942
305.24805,0.357264730148
306.24805,0.375989848259
307.24805,0.395378075695
308.24805,0.415427694072
309.24805,0.436135308487
310.24805,0.457495759903
311.24805,0.479502042237
312.24805,0.502145224761
313.24805,0.525414380446
314.24805,0.549296520845
315.24805,0.573776538147
316.24805,0.598837154978
317.24805,0.624458882556
318.24805,0.650619987746
319.24805,0.677296469572
320.24805,0.704462045688
321.24805,0.732088149293
322.24805,0.760143936936
323.24805,0.788596307598
324.24805,0.817409933419
325.24805,0.846547302363
326.24805,0.875968773074
327.24805,0.905632642113
328.24805,0.935495223705
329.24805,0.96551094206
330.24805,0.99563243628
331.24805,1.02581067777
332.24805,1.0559951
333.24805,1.08613374051
334.24805,1.1161733947
335.24805,1.14605978123
336.24805,1.17573771857
337.24805,1.20515131211
338.24805,1.23424415147
339.24805,1.2629595172
340.24805,1.2912405964
341.24805,1.31903070629
342.24805,1.34627352526
343.24805,1.37291333023
344.24805,1.39889523975
345.24805,1.42416546175
346.24805,1.44867154506
347.24805,1.47236263379
348.24805,1.4951897235
349.24805,1.51710591821
350.24805,1.53806668733
351.24805,1.55803012133
352.24805,1.57695718544
353.24805,1.59481197013
354.24805,1.61156193761
355.24805,1.62717816334
356.24805,1.6416355718
357.24805,1.65491316541
358.24805,1.66699424609
359.24805,1.67786662856
360.24805,1.68752284464
361.24805,1.69596033803
362.24805,1.70318164886
363.24805,1.70919458756
364.24805,1.71401239759
365.24805,1.71765390649
366.24805,1.72014366513
367.24805,1.72151207462
368.24805,1.72179550085
369.24805,1.72103637634
370.24805,1.71928328936
371.24805,1.71659106015
372.24805,1.71302080429
373.24805,1.70863998309
374.24805,1.70352244111
375.24805,1.69774843075
376.24805,1.69140462407
377.24805,1.68458411172
378.24805,1.6773863892
379.24805,1.66991733035
380.24805,1.66228914814
381.24805,1.65462034272
382.24805,1.64703563674
383.24805,1.63966589771
384.24805,1.63264804741
385.24805,1.62612495809
386.24805,1.62024533511
387.24805,1.6151635859
388.24805,1.61103967465
389.24805,1.60803896236
390.24805,1.60633203171
391.24805,1.60609449614
392.24805,1.60750679242
393.24805,1.61075395603
394.24805,1.6160253785
395.24805,1.62351454582
396.24805,1.63341875705
397.24805,1.64593882217
398.24805,1.66127873811
399.24805,1.67964534207
400.24805,1.70124794094
401.24805,1.72629791604
402.24805,1.75500830202
403.24805,1.787593339
404.24805,1.82426799725
405.24805,1.86524747335
406.24805,1.91074665733
407.24805,1.96097957023
408.24805,2.01615877144
409.24805,2.07649473583
410.24805,2.14219520042
411.24805,2.21346448069
412.24805,2.29050275708
413.24805,2.37350533202
414.24805,2.46266185855
415.24805,2.55815554162
416.24805,2.66016231339
417.24805,2.7688499845
418.24805,2.88437737317
419.24805,3.00689341468
420.24805,3.13653625383
421.24805,3.27343232362
422.24805,3.4176954134
423.24805,3.56942573038
424.24805,3.72870895847
425.24805,3.89561531897
426.24805,4.07019863774
427.24805,4.25249542393
428.24805,4.44252396548
429.24805,4.64028344695
430.24805,4.8457530955
431.24805,5.05889136084
432.24805,5.27963513529
433.24805,5.50789902023
434.24805,5.74357464505
435.24805,5.98653004515
436.24805,6.236609105
437.24805,6.49363107281
438.24805,6.7573901526
439.24805,7.02765517989
440.24805,7.30416938658
441.24805,7.58665026048
442.24805,7.8747895047
443.24805,8.16825310155
444.24805,8.46668148527
445.24805,8.76968982748
446.24805,9.07686843851
447.24805,9.38778328739
448.24805,9.70197664259
449.24805,10.0189678348
450.24805,10.3382541428
451.24805,10.6593118013
452.24805,10.981597132
453.24805,11.3045477941
454.24805,11.6275841531
455.24805,11.9501107643
456.24805,12.2715179673
457.24805,12.5911835866
458.24805,12.9084747318
459.24805,13.2227496927
460.24805,13.5333599203
461.24805,13.8396520872
462.24805,14.1409702181
463.24805,14.4366578806
464.24805,14.7260604283
465.24805,15.0085272831
466.24805,15.2834142485
467.24805,15.5500858405
468.24805,15.8079176253
469.24805,16.0562985519
470.24805,16.2946332674
471.24805,16.522344402
472.24805,16.7388748125
473.24805,16.9436897716
474.24805,17.1362790901
475.24805,17.3161591619
476.24805,17.4828749179
477.24805,17.6360016802
478.24805,17.7751469037
479.24805,17.8999517963
480.24805,18.0100928081
481.24805,18.1052829799
482.24805,18.1852731446
483.24805,18.2498529728
484.24805,18.2988518577
485.24805,18.332139633
486.24805,18.3496271202
487.24805,18.3512665016
488.24805,18.3370515174
489.24805,18.3070174843
490.24805,18.261241138
491.24805,18.1998402983
492.24805,18.1229733597
493.24805,18.0308386113
494.24805,17.9236733889
495.24805,17.8017530662
496.24805,17.6653898887
497.24805,17.5149316606
498.24805,17.3507602893
499.24805,17.1732901988
500.24805,16.9829666199
501.24805,16.7802637683
502.24805,16.56568292
503.24805,16.3397503968
504.24805,16.1030154721
505.24805,15.8560482099
506.24805,15.5994372489
507.24805,15.3337875434
508.24805,15.0597180746
509.24805,14.7778595439
510.24805,14.4888520609
511.24805,14.1933428379
512.24805,13.8919839027
513.24805,13.5854298421
514.24805,13.2743355859
515.24805,12.9593542428
516.24805,12.6411349987
517.24805,12.3203210849
518.24805,11.9975478279
519.24805,11.6734407859
520.24805,11.3486139819
521.24805,11.0236682378
522.24805,10.6991896167
523.24805,10.3757479777
524.24805,10.0538956468
525.24805,9.73416620883
526.24805,9.41707342
527.24805,9.10311024531
528.24805,8.79274801983
529.24805,8.4864357343
530.24805,8.18459944407
531.24805,7.88764179975
532.24805,7.59594169705
533.24805,7.30985404301
534.24805,7.02970963459
535.24805,6.75581514566
536.24805,6.48845321735
537.24805,6.22788264656
538.24805,5.97433866682
539.24805,5.72803331548
540.24805,5.48915588071
541.24805,5.25787342167
542.24805,5.0343313549
543.24805,4.8186541
544.24805,4.61094577728
545.24805,4.41129095042
546.24805,4.21975540684
547.24805,4.03638696875
548.24805,3.86121632793
549.24805,3.69425789741
550.24805,3.53551067346
551.24805,3.38495910159
552.24805,3.24257394049
553.24805,3.10831311801
554.24805,2.98212257417
555.24805,2.86393708569
556.24805,2.75368106789
557.24805,2.6512693494
558.24805,2.55660791617
559.24805,2.46959462132
560.24805,2.39011985798
561.24805,2.31806719278
562.24805,2.25331395796
563.24805,2.19573180069
564.24805,2.14518718843
565.24805,2.10154186992
566.24805,2.06465329147
567.24805,2.03437496886
568.24805,2.01055681555
569.24805,1.99304542816
570.24805,1.9816843307
571.24805,1.97631417917
572.24805,1.97677292871
573.24805,1.98289596559
574.24805,1.99451620656
575.24805,2.01146416851
576.24805,2.03356801141
577.24805,2.06065355768
578.24805,2.09254429145
579.24805,2.12906134103
580.24805,2.1700234482
581.24805,2.21524692783
582.24805,2.26454562146
583.24805,2.31773084839
584.24805,2.37461135776
585.24805,2.43499328513
586.24805,2.49868011684
587.24805,2.56547266542
588.24805,2.63516905901
589.24805,2.70756474778
590.24805,2.78245252989
591.24805,2.85962259957
592.24805,2.93886261932
593.24805,3.01995781844
594.24805,3.10269111928
595.24805,3.18684329274
596.24805,3.27219314409
597.24805,3.35851772975
598.24805,3.44559260566
599.24805,3.5331921072
600.24805,3.62108966065
601.24805,3.70905812547
602.24805,3.79687016682
603.24805,3.88429865702
604.24805,3.97111710465
605.24805,4.05710010949
606.24805,4.14202384137
607.24805,4.22566654073
608.24805,4.3078090383
609.24805,4.38823529134
610.24805,4.4667329334
611.24805,4.54309383467
612.24805,4.61711466955
613.24805,4.68859748817
614.24805,4.75735028841
615.24805,4.82318758481
616.24805,4.88593097092
617.24805,4.94540967132
618.24805,5.00146107999
619.24805,5.0539312812
620.24805,5.10267554966
621.24805,5.14755882656
622.24805,5.18845616807
623.24805,5.22525316344
624.24805,5.2578463197
625.24805,5.28614341014
626.24805,5.31006378426
627.24805,5.32953863689
628.24805,5.3445112344
629.24805,5.35493709647
630.24805,5.36078413188
631.24805,5.36203272731
632.24805,5.35867578832
633.24805,5.35071873209
634.24805,5.33817943179
635.24805,5.32108811275
636.24805,5.29948720105
637.24805,5.27343112534
638.24805,5.24298607305
639.24805,5.20822970265
640.24805,5.16925081359
641.24805,5.12614897619
642.24805,5.07903412376
643.24805,5.02802610976
644.24805,4.97325423275
645.24805,4.91485673238
646.24805,4.85298025971
647.24805,4.78777932552
648.24805,4.71941573011
649.24805,4.64805797865
650.24805,4.57388068584
651.24805,4.49706397416
652.24805,4.41779286962
653.24805,4.33625669927
654.24805,4.2526484947
655.24805,4.1671644056
656.24805,4.0800031276
657.24805,3.99136534849
658.24805,3.90145321679
659.24805,3.81046983665
660.24805,3.71861879284
661.24805,3.62610370957
662.24805,3.53312784657
663.24805,3.43989373595
664.24805,3.34660286279
665.24805,3.25345539266
666.24805,3.16064994865
667.24805,3.06838344065
668.24805,2.97685094898
669.24805,2.88624566467
670.24805,2.79675888805
671.24805,2.70858008733
672.24805,2.62189701849
673.24805,2.53689590743
674.24805,2.45376169537
675.24805,2.37267834781
676.24805,2.29382922741
677.24805,2.21739753079
678.24805,2.14356678875
679.24805,2.07252142952
680.24805,2.00444740404
681.24805,1.93953287205
682.24805,1.87796894758
683.24805,1.81995050199
684.24805,1.76567702253
685.24805,1.71535352391
686.24805,1.66919151027
687.24805,1.62740998442
688.24805,1.59023650092
689.24805,1.55790825937
690.24805,1.53067323378
691.24805,1.50879133348
692.24805,1.49253559098
693.24805,1.48219337129
694.24805,1.47806759745
695.24805,1.48047798598
696.24805,1.48976228618
697.24805,1.50627751624
698.24805,1.53040118919
699.24805,1.56253252096
700.24805,1.60309361255
701.24805,1.65253059799
702.24805,1.7113147491
703.24805,1.77994352797
704.24805,1.85894157747
705.24805,1.94886163983
706.24805,2.05028539294
707.24805,2.16382419373
708.24805,2.29011971776
709.24805,2.42984448362
710.24805,2.58370225099
711.24805,2.75242828052
712.24805,2.93678944409
713.24805,3.13758417347
714.24805,3.35564223584
715.24805,3.59182432444
716.24805,3.84702145294
717.24805,4.12215414231
718.24805,4.41817138929
719.24805,4.73604940615
720.24805,5.07679012186
721.24805,5.44141943535
722.24805,5.83098521269
723.24805,6.24655502042
724.24805,6.68921358863
725.24805,7.16005999837
726.24805,7.66020458927
727.24805,8.19076558452
728.24805,8.75286543199
729.24805,9.3476268618
730.24805,9.97616866234
731.24805,10.6396011787
732.24805,11.3390215391
733.24805,12.0755086177
734.24805,12.8501177426
735.24805,13.6638751628
736.24805,14.5177722868
737.24805,15.4127597106
738.24805,16.3497410535
739.24805,17.3295666239
740.24805,18.3530269369
741.24805,19.4208461122
742.24805,20.5336751785
743.24805,21.6920853153
744.24805,22.8965610659
745.24805,24.1474935547
746.24805,25.445173746
747.24805,26.789785783
748.24805,28.1814004456
749.24805,29.6199687704
750.24805,31.1053158727
751.24805,32.637135016
752.24805,34.2149819726
753.24805,35.8382697186
754.24805,37.5062635093
755.24805,39.218076379
756.24805,40.9726651088
757.24805,42.7688267054
758.24805,44.6051954329
759.24805,46.4802404385
760.24805,48.3922640094
761.24805,50.3394004973
762.24805,52.3196159454
763.24805,54.3307084466
764.24805,56.3703092613
765.24805,58.4358847187
766.24805,60.5247389209
767.24805,62.6340172655
768.24805,64.7607107987
769.24805,66.9016614039
770.24805,69.0535678287
771.24805,71.2129925461
772.24805,73.3763694408
773.24805,75.5400123077
774.24805,77.7001241409
775.24805,79.8528071908
776.24805,81.9940737556
777.24805,84.1198576747
778.24805,86.2260264797
779.24805,88.3083941587
780.24805,90.3627344812
781.24805,92.3847948289
782.24805,94.3703104695
783.24805,96.3150192117
784.24805,98.2146763704
785.24805,100.065069972
786.24805,101.86203612
787.24805,103.601474458
788.24805,105.279363624
789.24805,106.891776647
790.24805,108.434896175
791.24805,109.905029478
792.24805,111.298623117
793.24805,112.612277227
794.24805,113.842759301
795.24805,114.987017431
796.24805,116.042192904
797.24805,117.005632089
798.24805,117.874897553
799.24805,118.647778329
800.24805,119.322299282
801.24805,119.896729519
802.24805,120.369589785
803.24805,120.739658811
804.24805,121.005978568
805.24805,121.167858399
806.24805,121.224878003
807.24805,121.176889251
808.24805,121.02401683
809.24805,120.766657703
810.24805,120.40547939
811.24805,119.941417086
812.24805,119.375669624
813.24805,118.70969432
814.24805,117.945200716
815.24805,117.084143272
816.24805,116.128713043
817.24805,115.081328391
818.24805,113.944624794
819.24805,112.7214438
820.24805,111.414821205
821.24805,110.027974511
822.24805,108.564289745
823.24805,107.027307708
824.24805,105.420709746
825.24805,103.748303097
826.24805,102.014005923
827.24805,100.221832094
828.24805,98.3758758055
829.24805,96.4802961233
830.24805,94.5393015199
831.24805,92.5571344973
832.24805,90.5380563647
833.24805,88.4863322498
834.24805,86.4062164152
835.24805,84.3019379483
836.24805,82.1776868906
