Energy /eV,Oscillator Strength
4.01865024676,1.4735103683e-05
4.02865024676,1.88754263023e-05
4.03865024676,2.40955917026e-05
4.04865024676,3.06531849657e-05
4.05865024676,3.88607100838e-05
4.06865024676,4.90956380078e-05
4.07865024676,6.18118967117e-05
4.08865024676,7.75529202929e-05
4.09865024676,9.69663627125e-05
4.10865024676,0.000120820564079
4.11865024676,0.000150022832385
4.12865024676,0.000185639570302
4.13865024676,0.000228918234128
4.14865024676,0.000281311059378
4.15865024676,0.000344500424332
4.16865024676,0.000420425648527
4.17865024676,0.000511310937946
4.18865024676,0.000619694092656
4.19865024676,0.000748455486935
4.20865024676,0.000900846717931
4.21865024676,0.00108051819864
4.22865024676,0.0012915448474
4.23865024676,0.00153844890254
4.24865024676,0.00182621877165
4.25865024676,0.00216032271496
4.26865024676,0.00254671606729
4.27865024676,0.00299184062862
4.28865024676,0.00350261480673
4.29865024676,0.00408641308221
4.30865024676,0.00475103339397
4.31865024676,0.00550465111779
4.32865024676,0.00635575843722
4.33865024676,0.00731308808974
4.34865024676,0.00838552071507
4.35865024676,0.00958197533744
4.36865024676,0.0109112828803
4.37865024676,0.0123820430361
4.38865024676,0.0140024652905
4.39865024676,0.0157801954226
4.40865024676,0.017722129355
4.41865024676,0.0198342168049
4.42865024676,0.0221212577606
4.43865024676,0.0245866953722
4.44865024676,0.02723240937
4.45865024676,0.0300585145904
4.46865024676,0.03306316958
4.47865024676,0.0362424005333
4.48865024676,0.0395899459855
4.49865024676,0.0430971277068
4.50865024676,0.0467527531141
4.51865024676,0.0505430542197
4.52865024676,0.054451667669
4.53865024676,0.0584596597778
4.54865024676,0.0625455996728
4.55865024676,0.0666856826772
4.56865024676,0.070853904986
4.57865024676,0.075022289468
4.58865024676,0.0791611611436
4.59865024676,0.0832394695581
4.60865024676,0.0872251539331
4.61865024676,0.0910855456835
4.62865024676,0.0947878016724
4.63865024676,0.0982993604883
4.64865024676,0.101588413101
4.65865024676,0.104624378541
4.66865024676,0.107378374743
4.67865024676,0.109823674492
4.68865024676,0.111936136432
4.69865024676,0.113694601442
4.70865024676,0.115081245282
4.71865024676,0.116081879309
4.72865024676,0.116686192148
4.73865024676,0.116887926586
4.74865024676,0.116684987425
4.75865024676,0.116079477707
4.76865024676,0.11507766243
4.77865024676,0.113689860632
4.78865024676,0.111930268444
4.79865024676,0.109816717351
4.80865024676,0.107370373419
4.81865024676,0.104615384585
4.82865024676,0.10157848422
4.83865024676,0.0982885600564
4.84865024676,0.0947761981883
4.85865024676,0.0910732121658
4.86865024676,0.0872121672657
4.87865024676,0.0832259097876
4.88865024676,0.0791471107371
4.89865024676,0.0750078325386
4.90865024676,0.0708391264959
4.91865024676,0.0666706676294
4.92865024676,0.0625304323028
4.93865024676,0.0584444227573
4.94865024676,0.0544364413346
4.95865024676,0.0505279158389
4.96865024676,0.0467377762004
4.97865024676,0.0430823813952
4.98865024676,0.0395754944792
4.99865024676,0.0362283026287
5.00865024676,0.0330494782783
5.01865024676,0.0300452768001
5.02865024676,0.0272196657035
5.03865024676,0.024574480037
5.04865024676,0.022109598544
5.05865024676,0.0198231351493
5.06865024676,0.0177116405173
5.07865024676,0.0157703087128
5.08865024676,0.0139931843798
5.09865024676,0.0123733663251
5.10865024676,0.0109032039181
5.11865024676,0.00957448327978
5.12865024676,0.0083786008114
5.13865024676,0.00730672218789
5.14865024676,0.00634992549554
5.15865024676,0.00549932771501
5.16865024676,0.00474619422771
5.17865024676,0.00408203144863
5.18865024676,0.00349866305443
5.19865024676,0.00298829058163
5.20865024676,0.00254353941319
5.21865024676,0.00215749135552
5.22865024676,0.00182370513503
5.23865024676,0.00153622621731
5.24865024676,0.0012895873803
5.25865024676,0.00107880145945
5.26865024676,0.000899347636594
5.27865024676,0.000747152569702
5.28865024676,0.000618567566367
5.29865024676,0.000510342893937
5.30865024676,0.000419600200872
5.31865024676,0.000343803901136
5.32865024676,0.000280732251005
5.33865024676,0.000228448729026
5.34865024676,0.000185274217916
5.35865024676,0.000149760384204
5.36865024676,0.000120664558958
5.37865024676,9.69263421693e-05
5.38865024676,7.76460848291e-05
5.39865024676,6.20653467577e-05
5.40865024676,4.95493847872e-05
5.41865024676,3.95716947048e-05
5.42865024676,3.1700611143e-05
5.43865024676,2.5587961922e-05
5.44865024676,2.0959776841e-05
5.45865024676,1.76090652631e-05
5.46865024676,1.53907018029e-05
5.47865024676,1.42184949179e-05
5.48865024676,1.40645592534e-05
5.49865024676,1.49611693504e-05
5.50865024676,1.70053400835e-05
5.51865024676,2.03664582966e-05
5.52865024676,2.52973809297e-05
5.53865024676,3.21495178406e-05
5.54865024676,4.13925327205e-05
5.55865024676,5.36394230129e-05
5.56865024676,6.96778791984e-05
5.57865024676,9.05089744001e-05
5.58865024676,0.000117394395518
5.59865024676,0.000151913594759
5.60865024676,0.000196032412242
5.61865024676,0.000252184891901
5.62865024676,0.000323370178481
5.63865024676,0.000413266535687
5.64865024676,0.000526364655695
5.65865024676,0.00066812252758
5.66865024676,0.000845144184316
5.67865024676,0.00106538464069
5.68865024676,0.00133838325196
5.69865024676,0.00167552754788
5.70865024676,0.00209034931108
5.71865024676,0.00259885425286
5.72865024676,0.00321988607592
5.73865024676,0.00397552498293
5.74865024676,0.00489151977778
5.75865024676,0.0059977515993
5.76865024676,0.00732872601667
5.77865024676,0.00892408869992
5.78865024676,0.0108291581618
5.79865024676,0.0130954671632
5.80865024676,0.0157813023052
5.81865024676,0.0189522291372
5.82865024676,0.0226815878295
5.83865024676,0.0270509421687
5.84865024676,0.0321504623861
5.85865024676,0.03807922024
5.86865024676,0.04494537291
5.87865024676,0.0528662107673
5.88865024676,0.0619680430485
5.89865024676,0.0723858950309
5.90865024676,0.0842629905837
5.91865024676,0.0977499950885
5.92865024676,0.11300399578
5.93865024676,0.130187199647
5.94865024676,0.149465333229
5.95865024676,0.171005733969
5.96865024676,0.194975129231
5.97865024676,0.221537106689
5.98865024676,0.250849288303
5.99865024676,0.283060229569
6.00865024676,0.31830607581
6.01865024676,0.356707017813
6.02865024676,0.398363599763
6.03865024676,0.443352942924
6.04865024676,0.491724958362
6.05865024676,0.543498630939
6.06865024676,0.598658464345
6.07865024676,0.657151182626
6.08865024676,0.718882787261
6.09865024676,0.783716069809
6.10865024676,0.851468678359
6.11865024676,0.921911831112
6.12865024676,0.994769762369
6.13865024676,1.0697199749
6.14865024676,1.14639435824
6.15865024676,1.22438121514
6.16865024676,1.30322821833
6.17865024676,1.38244629778
6.18865024676,1.4615144349
6.19865024676,1.53988531536
6.20865024676,1.61699176758
6.21865024676,1.6922538897
6.22865024676,1.76508674492
6.23865024676,1.8349084848
6.24865024676,1.90114874247
6.25865024676,1.9632571241
6.26865024676,2.0207116176
6.27865024676,2.07302673312
6.28865024676,2.11976119055
6.29865024676,2.16052497548
6.30865024676,2.19498559637
6.31865024676,2.22287339245
6.32865024676,2.24398576301
6.33865024676,2.25819021413
6.34865024676,2.26542614802
6.35865024676,2.26570535107
6.36865024676,2.25911116992
6.37865024676,2.24579639809
6.38865024676,2.2259799284
6.39865024676,2.19994225781
6.40865024676,2.16801995944
6.41865024676,2.13059926187
6.42865024676,2.08810889601
6.43865024676,2.04101238586
6.44865024676,1.98979996952
6.45865024676,1.93498034146
6.46865024676,1.87707240619
6.47865024676,1.81659722678
6.48865024676,1.75407034001
6.49865024676,1.68999459375
6.50865024676,1.6248536418
6.51865024676,1.55910620809
6.52865024676,1.49318120633
6.53865024676,1.42747377449
6.54865024676,1.36234225563
6.55865024676,1.29810613006
6.56865024676,1.23504487796
6.57865024676,1.1733977283
6.58865024676,1.11336422912
6.59865024676,1.05510555684
6.60865024676,0.998746468435
6.61865024676,0.944377790583
6.62865024676,0.892059333735
6.63865024676,0.841823117057
6.64865024676,0.793676791705
6.65865024676,0.747607154761
6.66865024676,0.703583653906
6.67865024676,0.661561793087
6.68865024676,0.621486361461
6.69865024676,0.583294421235
6.70865024676,0.5469180041
6.71865024676,0.512286480223
6.72865024676,0.479328577711
6.73865024676,0.447974043686
6.74865024676,0.418154950156
6.75865024676,0.389806658538
6.76865024676,0.362868465649
6.77865024676,0.33728396121
6.78865024676,0.313001132254
6.79865024676,0.289972253354
6.80865024676,0.268153603375
6.81865024676,0.24750504965
6.82865024676,0.227989539188
6.83865024676,0.209572534093
6.84865024676,0.192221424936
6.85865024676,0.175904951618
6.86865024676,0.160592656646
6.87865024676,0.146254390774
6.88865024676,0.13285988605
6.89865024676,0.120378406423
6.90865024676,0.108778481595
6.91865024676,0.0980277256493
6.92865024676,0.0880927384667
6.93865024676,0.0789390848762
6.94865024676,0.0705313441607
6.95865024676,0.0628332207306
6.96865024676,0.0558077056228
6.97865024676,0.049417277858
6.98865024676,0.0436241345672
6.99865024676,0.0383904391128
7.00865024676,0.0336785770928
7.01865024676,0.0294514110653
7.02865024676,0.0256725259786
7.03865024676,0.0223064585723
7.04865024676,0.0193189053573
7.05865024676,0.0166769051258
7.06865024676,0.0143489932472
7.07865024676,0.0123053262101
7.08865024676,0.0105177759726
7.09865024676,0.0089599946297
7.10865024676,0.00760745071132
7.11865024676,0.00643743906696
7.12865024676,0.00542906677921
7.13865024676,0.00456321788736
7.14865024676,0.00382249990386
7.15865024676,0.0031911751857
7.16865024676,0.00265508019718
7.17865024676,0.00220153558789
7.18865024676,0.00181924982742
7.19865024676,0.00149821890522
7.20865024676,0.00122962433469
7.21865024676,0.00100573141147
7.22865024676,0.000819789378304
7.23865024676,0.000665934854876
7.24865024676,0.000539099608653
7.25865024676,0.000434923478775
7.26865024676,0.000349673024862
