Wavelength /nm,Intensity
331.474553758,2.99880467511e-19
330.590712026,3.74447791907e-19
329.711571099,4.6593255262e-19
328.837093576,5.7775478898e-19
327.967242449,7.13925362269e-19
327.1019811,8.79125464269e-19
326.241273299,1.07879205329e-18
325.385083194,1.31920863478e-18
324.53337531,1.60760052399e-18
323.686114541,1.95223341096e-18
322.843266148,2.36251369485e-18
322.004795752,2.84908867119e-18
321.17066933,3.42394424639e-18
320.340853212,4.10049742985e-18
319.515314074,4.89368042506e-18
318.694018934,5.82001272192e-18
317.876935151,6.89765720011e-18
317.064030413,8.14645590605e-18
316.255272744,9.5879408862e-18
315.450630487,1.12453152698e-17
314.650072312,1.3143399719e-17
313.853567202,1.53085394303e-17
313.061084455,1.77684671016e-17
312.272593679,2.05521176976e-17
311.488064787,2.36893914798e-17
310.707467992,2.72108626262e-17
309.930773807,3.1147431872e-17
309.157953037,3.5529922967e-17
308.388976781,4.03886243629e-17
307.62381642,4.57527794296e-17
306.862443622,5.16500306277e-17
306.104830334,5.810582544e-17
305.350948779,6.5142794455e-17
304.600771452,7.27801147896e-17
303.854271119,8.10328750044e-17
303.111420812,8.99114607894e-17
302.372193827,9.94209839468e-17
301.636563717,1.09560780576e-16
300.904504294,1.20324007847e-16
300.175989625,1.31697372374e-16
299.450994024,1.43661026945e-16
298.729492054,1.56188676351e-16
298.011458525,1.69247937275e-16
297.296868484,1.82801001802e-16
296.585697221,1.96805659185e-16
295.877920259,2.11216736219e-16
295.173513356,2.25988023031e-16
294.472452499,2.41074758574e-16
293.774713904,2.56436758678e-16
293.080274009,2.72042279406e-16
292.389109479,2.87872719835e-16
291.701197193,3.03928281263e-16
291.016514252,3.2023471442e-16
290.335037969,3.36851302312e-16
289.656745869,3.53880243831e-16
288.981615688,3.71477621902e-16
288.309625366,3.89866159104e-16
287.640753052,4.09349982951e-16
286.974977094,4.30331641204e-16
286.312276041,4.53331623735e-16
285.65262864,4.79010660074e-16
284.996013833,5.08195069139e-16
284.342410756,5.41905437891e-16
283.691798734,5.81388896477e-16
283.044157284,6.28155236438e-16
282.399466106,6.84017083182e-16
281.757705087,7.51134281463e-16
281.118854296,8.32062580357e-16
280.482893982,9.29806609745e-16
279.849804572,1.04787702119e-15
279.219566669,1.19035152066e-15
278.592161053,1.36193934731e-15
277.967568672,1.56804855158e-15
277.345770648,1.81485519714e-15
276.726748271,2.10937335725e-15
276.110482996,2.45952449961e-15
275.496956445,2.87420456002e-15
274.8861504,3.36334670046e-15
274.278046808,3.93797744005e-15
273.672627773,4.61026354796e-15
273.069875556,5.39354680792e-15
272.469772577,6.30236351739e-15
271.872301407,7.35244538735e-15
271.27744477,8.56069837466e-15
270.685185544,9.94515592725e-15
270.095506752,1.15249031675e-14
269.508391567,1.33199686976e-14
268.923823307,1.53511809978e-14
268.341785436,1.76399868131e-14
267.76226156,2.0208229499e-14
267.185235424,2.30778860235e-14
266.610690917,2.62707622011e-14
266.038612063,2.9808146761e-14
265.468983024,3.37104260086e-14
264.901788097,3.79966621137e-14
264.337011715,4.26841394189e-14
263.77463844,4.77878845776e-14
263.214652968,5.33201677597e-14
262.657040123,5.92899935638e-14
262.101784857,6.57025915941e-14
261.548872251,7.25589178424e-14
260.99828751,7.98551790141e-14
260.450015964,8.75823926874e-14
259.904043066,9.57259966551e-14
259.36035439,1.04265520914e-13
258.818935631,1.13174335502e-13
258.279772603,1.22419486727e-13
257.742851238,1.31961633201e-13
257.208157586,1.41755091627e-13
256.67567781,1.51748000276e-13
256.14539819,1.61882605827e-13
255.617305116,1.72095676533e-13
255.091385094,1.8231904174e-13
254.567624737,1.92480254609e-13
254.046010771,2.02503371639e-13
253.526530027,2.12309839224e-13
253.009169447,2.21819474331e-13
252.493916078,2.30951523269e-13
251.980757071,2.39625779835e-13
251.469679683,2.47763741761e-13
250.960671274,2.55289782524e-13
250.453719305,2.62132314322e-13
249.948811339,2.68224917357e-13
249.445935039,2.73507410603e-13
248.945078167,2.77926839975e-13
248.446228583,2.81438361208e-13
247.949374245,2.84005996895e-13
247.454503205,2.8560324978e-13
246.961603612,2.86213557717e-13
246.470663709,2.85830579326e-13
245.981671832,2.84458303491e-13
245.494616409,2.82110980022e-13
245.009485961,2.78812873174e-13
244.526269097,2.74597843981e-13
244.044954519,2.69508771456e-13
243.565531014,2.63596826478e-13
243.08798746,2.56920615569e-13
242.612312821,2.49545214565e-13
242.138496146,2.41541114459e-13
241.666526572,2.32983103225e-13
241.196393319,2.23949108357e-13
240.72808569,2.14519025016e-13
240.261593071,2.04773554197e-13
239.796904933,1.94793074176e-13
239.334010824,1.84656566778e-13
238.872900375,1.74440617748e-13
238.413563298,1.6421850788e-13
237.955989381,1.5405940855e-13
237.500168492,1.44027692124e-13
237.046090576,1.34182364414e-13
236.593745655,1.24576623048e-13
236.143123826,1.15257542451e-13
235.694215264,1.06265883087e-13
235.247010216,9.76360199097e-14
234.801499003,8.93959825427e-14
234.35767202,8.15675976801e-14
233.915519735,7.41667225856e-14
233.475032686,6.72035573721e-14
233.036201485,6.06830229753e-14
232.599016811,5.46051913847e-14
232.163469416,4.89657547259e-14
231.729550118,4.37565201706e-14
231.297249806,3.8965918339e-14
230.866559436,3.45795138042e-14
230.437470032,3.0580507448e-14
230.009972682,2.69502217122e-14
229.584058544,2.36685611712e-14
229.159718838,2.07144422775e-14
228.736944851,1.80661875517e-14
228.315727932,1.57018808667e-14
227.896059495,1.3599681767e-14
227.477931018,1.17380979546e-14
227.061334039,1.00962161293e-14
226.64626016,8.65389228628e-15
226.232701043,7.39190333885e-15
225.820648411,6.2920625458e-15
225.410094048,5.3373016853e-15
225.001029797,4.51172323943e-15
224.59344756,3.80062604406e-15
224.187339297,3.19050793347e-15
223.782697028,2.66904888257e-15
223.379512828,2.22507803746e-15
222.977778831,1.84852784501e-15
222.577487226,1.53037825911e-15
222.17863026,1.26259373093e-15
221.781200234,1.03805539675e-15
221.385189503,8.50490571503e-16
220.990590478,6.9440135055e-16
220.597395625,5.64993824329e-16
220.205597461,4.58109127711e-16
219.815188558,3.70157283618e-16
