Frequency /cm-1,Intensity /km mol-1
291.1969,0.00407450013552
292.1969,0.00454400509877
293.1969,0.00506322230607
294.1969,0.00563688136163
295.1969,0.00627010054908
296.1969,0.00696841214197
297.1969,0.00773778867753
298.1969,0.00858467015747
299.1969,0.00951599213039
300.1969,0.010539214599
301.1969,0.0116623516846
302.1969,0.0128940019679
303.1969,0.0142433794142
304.1969,0.0157203447748
305.1969,0.0173354373441
306.1969,0.0190999069362
307.1969,0.021025745929
308.1969,0.0231257212078
309.1969,0.0254134058244
310.1969,0.0279032101699
311.1969,0.0306104124429
312.1969,0.0335511881783
313.1969,0.0367426385827
314.1969,0.040202817407
315.1969,0.0439507560702
316.1969,0.0480064867305
317.1969,0.0523910629855
318.1969,0.0571265778688
319.1969,0.0622361787942
320.1969,0.0677440790902
321.1969,0.0736755657515
322.1969,0.0800570030293
323.1969,0.0869158314721
324.1969,0.0942805620238
325.1969,0.102180764783
326.1969,0.110647052028
327.1969,0.119711055115
328.1969,0.129405394853
329.1969,0.139763644992
330.1969,0.150820288439
331.1969,0.16261066586
332.1969,0.17517091634
333.1969,0.188537909781
334.1969,0.202749170765
335.1969,0.217842793641
336.1969,0.2338573486
337.1969,0.250831778598
338.1969,0.26880528697
339.1969,0.287817215674
340.1969,0.307906914142
341.1969,0.329113598756
342.1969,0.35147620305
343.1969,0.375033218805
344.1969,0.399822528242
345.1969,0.425881227629
346.1969,0.453245442665
347.1969,0.481950136086
348.1969,0.512028908021
349.1969,0.543513789701
350.1969,0.576435031213
351.1969,0.610820884041
352.1969,0.646697379269
353.1969,0.684088102345
354.1969,0.723013965416
355.1969,0.763492978305
356.1969,0.805540019284
357.1969,0.849166606833
358.1969,0.894380673689
359.1969,0.941186344493
360.1969,0.989583718419
361.1969,1.03956865823
362.1969,1.09113258718
363.1969,1.14426229529
364.1969,1.1989397565
365.1969,1.25514195814
366.1969,1.31284074432
367.1969,1.37200267471
368.1969,1.43258890014
369.1969,1.49455505648
370.1969,1.55785117819
371.1969,1.62242163291
372.1969,1.68820507823
373.1969,1.75513444195
374.1969,1.82313692676
375.1969,1.8921340405
376.1969,1.96204165258
377.1969,2.0327700776
378.1969,2.10422418646
379.1969,2.17630354556
380.1969,2.24890258434
381.1969,2.32191079124
382.1969,2.39521293799
383.1969,2.4686893321
384.1969,2.54221609703
385.1969,2.61566547942
386.1969,2.68890618276
387.1969,2.76180372626
388.1969,2.83422082801
389.1969,2.90601781094
390.1969,2.97705303015
391.1969,3.04718331979
392.1969,3.11626445782
393.1969,3.18415164651
394.1969,3.25070000654
395.1969,3.31576508245
396.1969,3.37920335707
397.1969,3.44087277226
398.1969,3.50063325358
399.1969,3.55834723599
400.1969,3.61388018806
401.1969,3.6671011317
402.1969,3.71788315479
403.1969,3.76610391383
404.1969,3.81164612386
405.1969,3.85439803288
406.1969,3.89425387817
407.1969,3.93111432174
408.1969,3.96488686267
409.1969,3.99548622362
410.1969,4.02283470957
411.1969,4.04686253644
412.1969,4.06750812776
413.1969,4.08471837757
414.1969,4.09844887812
415.1969,4.10866411074
416.1969,4.11533759898
417.1969,4.11845202302
418.1969,4.11799929458
419.1969,4.11398059196
420.1969,4.10640635502
421.1969,4.09529624003
422.1969,4.08067903478
423.1969,4.06259253436
424.1969,4.04108337843
425.1969,4.01620685098
426.1969,3.98802664369
427.1969,3.9566145844
428.1969,3.92205033232
429.1969,3.88442104167
430.1969,3.8438209959
431.1969,3.80035121455
432.1969,3.75411903507
433.1969,3.705237672
434.1969,3.65382575612
435.1969,3.60000685608
436.1969,3.54390898539
437.1969,3.48566409726
438.1969,3.42540757039
439.1969,3.36327768826
440.1969,3.29941511483
441.1969,3.23396236941
442.1969,3.16706330343
443.1969,3.09886258175
444.1969,3.02950517114
445.1969,2.95913583839
446.1969,2.88789866047
447.1969,2.81593654897
448.1969,2.74339079099
449.1969,2.67040060843
450.1969,2.59710273753
451.1969,2.5236310303
452.1969,2.45011607931
453.1969,2.37668486726
454.1969,2.3034604423
455.1969,2.23056162018
456.1969,2.15810271392
457.1969,2.08619329164
458.1969,2.01493796285
459.1969,1.94443619351
460.1969,1.87478214993
461.1969,1.80606457123
462.1969,1.73836667024
463.1969,1.67176606234
464.1969,1.60633472164
465.1969,1.54213896378
466.1969,1.47923945456
467.1969,1.41769124337
468.1969,1.35754382044
469.1969,1.29884119663
470.1969,1.24162200471
471.1969,1.18591962066
472.1969,1.13176230371
473.1969,1.0791733537
474.1969,1.0281712844
475.1969,0.978770011142
476.1969,0.930979051578
477.1969,0.884803737803
478.1969,0.840245438601
479.1969,0.797301790269
480.1969,0.755966934629
481.1969,0.716231762862
482.1969,0.678084163798
483.1969,0.641509275406
484.1969,0.606489738221
485.1969,0.573005949544
486.1969,0.541036317296
487.1969,0.510557512472
488.1969,0.481544719221
489.1969,0.45397188162
490.1969,0.427811946317
491.1969,0.403037100252
492.1969,0.379619002756
493.1969,0.357529011385
494.1969,0.336738400919
495.1969,0.317218575017
496.1969,0.298941270065
497.1969,0.281878750844
498.1969,0.26600399766
499.1969,0.251290884658
500.1969,0.237714349065
501.1969,0.225250551163
502.1969,0.213877024821
503.1969,0.20357281845
504.1969,0.194318626261
505.1969,0.186096909754
506.1969,0.178892009354
507.1969,0.172690246135
508.1969,0.167480013597
509.1969,0.163251859437
510.1969,0.159998557289
511.1969,0.157715168379
512.1969,0.156399093057
513.1969,0.156050112149
514.1969,0.156670418081
515.1969,0.158264635689
516.1969,0.160839832654
517.1969,0.164405519456
518.1969,0.168973638766
519.1969,0.174558544143
520.1969,0.181176967942
521.1969,0.188847978291
522.1969,0.197592925011
523.1969,0.207435374355
524.1969,0.218401032422
525.1969,0.230517657134
526.1969,0.243814958653
527.1969,0.25832448813
528.1969,0.274079514715
529.1969,0.291114890752
530.1969,0.309466905129
531.1969,0.329173124798
532.1969,0.350272224485
533.1969,0.372803804686
534.1969,0.396808198094
535.1969,0.422326264641
536.1969,0.449399175409
537.1969,0.478068185756
538.1969,0.508374398026
539.1969,0.540358514347
540.1969,0.574060580053
541.1969,0.60951971839
542.1969,0.646773857237
543.1969,0.685859448658
544.1969,0.726811182226
545.1969,0.769661693117
546.1969,0.814441266103
547.1969,0.861177536643
548.1969,0.909895190386
549.1969,0.960615662482
550.1969,1.01335683819
551.1969,1.06813275635
552.1969,1.12495331741
553.1969,1.18382399768
554.1969,1.24474557169
555.1969,1.30771384445
556.1969,1.37271939556
557.1969,1.43974733713
558.1969,1.50877708749
559.1969,1.5797821627
560.1969,1.65272998791
561.1969,1.72758173051
562.1969,1.80429215718
563.1969,1.88280951674
564.1969,1.9630754507
565.1969,2.04502493348
566.1969,2.12858624398
567.1969,2.21368097027
568.1969,2.30022404898
569.1969,2.38812384093
570.1969,2.47728224428
571.1969,2.56759484641
572.1969,2.65895111572
573.1969,2.75123463411
574.1969,2.84432337086
575.1969,2.93808999851
576.1969,3.03240225105
577.1969,3.12712332445
578.1969,3.22211231959
579.1969,3.31722472717
580.1969,3.41231295409
581.1969,3.50722689063
582.1969,3.60181451738
583.1969,3.69592255077
584.1969,3.78939712573
585.1969,3.88208451399
586.1969,3.97383187599
587.1969,4.06448804456
588.1969,4.153904338
589.1969,4.24193540016
590.1969,4.32844006505
591.1969,4.41328224296
592.1969,4.49633182554
593.1969,4.57746560644
594.1969,4.65656821465
595.1969,4.73353305697
596.1969,4.80826326652
597.1969,4.88067265367
598.1969,4.9506866559
599.1969,5.01824328305
600.1969,5.0832940544
601.1969,5.14580492388
602.1969,5.20575718987
603.1969,5.26314838582
604.1969,5.31799314829
605.1969,5.37032405864
606.1969,5.42019245494
607.1969,5.46766921043
608.1969,5.51284547529
609.1969,5.55583337812
610.1969,5.59676668383
611.1969,5.63580140466
612.1969,5.67311636107
613.1969,5.70891368934
614.1969,5.74341929264
615.1969,5.77688323273
616.1969,5.80958005904
617.1969,5.84180907226
618.1969,5.87389451955
619.1969,5.90618571842
620.1969,5.93905710648
621.1969,5.97290821428
622.1969,6.00816355834
623.1969,6.04527245182
624.1969,6.08470872996
625.1969,6.1269703877
626.1969,6.17257912676
627.1969,6.22207980974
628.1969,6.27603981845
629.1969,6.33504831427
630.1969,6.39971539784
631.1969,6.47067116601
632.1969,6.54856466362
633.1969,6.63406272824
634.1969,6.72784872578
635.1969,6.83062117531
636.1969,6.94309226156
637.1969,7.06598623394
638.1969,7.2000376909
639.1969,7.34598974924
640.1969,7.50459209799
641.1969,7.6765989371
642.1969,7.8627668015
643.1969,8.06385227188
644.1969,8.2806095737
645.1969,8.51378806699
646.1969,8.7641296299
647.1969,9.03236593968
648.1969,9.31921565573
649.1969,9.62538150986
650.1969,9.95154731005
651.1969,10.2983748647
652.1969,10.6665008353
653.1969,11.0565335262
654.1969,11.4690496216
655.1969,11.9045908806
656.1969,12.3636608012
657.1969,12.8467212674
658.1969,13.3541891912
659.1969,13.8864331659
660.1969,14.443770145
661.1969,15.0264621626
662.1969,15.6347131135
663.1969,16.2686656101
664.1969,16.9283979343
665.1969,17.6139211032
666.1969,18.3251760688
667.1969,19.0620310704
668.1969,19.8242791599
669.1969,20.6116359202
670.1969,21.4237373961
671.1969,22.2601382579
672.1969,23.120310217
673.1969,24.0036407114
674.1969,24.9094318804
675.1969,25.8368998457
676.1969,26.7851743142
677.1969,27.7532985184
678.1969,28.7402295083
679.1969,29.7448388067
680.1969,30.7659134385
681.1969,31.8021573431
682.1969,32.8521931768
683.1969,33.9145645094
684.1969,34.9877384189
685.1969,36.0701084827
686.1969,37.1599981656
687.1969,38.2556645977
688.1969,39.3553027367
689.1969,40.4570499049
690.1969,41.5589906874
691.1969,42.6591621786
692.1969,43.7555595583
693.1969,44.8461419776
694.1969,45.928838734
695.1969,47.0015557081
696.1969,48.0621820382
697.1969,49.1085970017
698.1969,50.1386770729
699.1969,51.1503031251
700.1969,52.1413677417
701.1969,53.1097826013
702.1969,54.0534859
703.1969,54.9704497722
704.1969,55.8586876726
705.1969,56.7162616801
706.1969,57.5412896837
707.1969,58.3319524132
708.1969,59.0865002753
709.1969,59.8032599564
710.1969,60.4806407579
711.1969,61.1171406256
712.1969,61.7113518409
713.1969,62.261966341
714.1969,62.7677806384
715.1969,63.2277003106
716.1969,63.6407440356
717.1969,64.0060471501
718.1969,64.3228647096
719.1969,64.590574035
720.1969,64.8086767304
721.1969,64.9768001622
722.1969,65.0946983921
723.1969,65.1622525603
724.1969,65.1794707182
725.1969,65.1464871135
726.1969,65.0635609346
727.1969,64.9310745234
728.1969,64.7495310693
729.1969,64.5195518014
730.1969,64.2418726967
731.1969,63.9173407277
732.1969,63.5469096723
733.1969,63.1316355149
734.1969,62.6726714666
735.1969,62.1712626368
736.1969,61.6287403885
737.1969,61.0465164132
738.1969,60.4260765601
739.1969,59.7689744568
740.1969,59.0768249598
741.1969,58.3512974719
742.1969,57.5941091651
743.1969,56.8070181462
744.1969,55.9918166042
745.1969,55.1503239746
746.1969,54.2843801578
747.1969,53.3958388251
748.1969,52.486560847
749.1969,51.5584078748
750.1969,50.6132361045
751.1969,49.6528902532
752.1969,48.6791977711
753.1969,47.6939633148
754.1969,46.6989635022
755.1969,45.6959419666
756.1969,44.6866047288
757.1969,43.6726158982
758.1969,42.6555937158
759.1969,41.6371069459
760.1969,40.6186716246
761.1969,39.6017481662
762.1969,38.5877388304
763.1969,37.5779855476
764.1969,36.5737680999
765.1969,35.5763026508
766.1969,34.586740617
767.1969,33.6061678714
768.1969,32.6356042681
769.1969,31.6760034737
770.1969,30.7282530927
771.1969,29.7931750709
772.1969,28.8715263603
773.1969,27.9639998273
774.1969,27.0712253874
775.1969,26.1937713466
776.1969,25.3321459316
777.1969,24.4867989875
778.1969,23.6581238271
779.1969,22.8464592089
780.1969,22.0520914278
781.1969,21.2752564984
782.1969,20.5161424138
783.1969,19.7748914616
784.1969,19.051602581
785.1969,18.3463337458
786.1969,17.6591043565
787.1969,16.9898976288
788.1969,16.3386629658
789.1969,15.7053183005
790.1969,15.089752398
791.1969,14.4918271093
792.1969,13.9113795647
793.1969,13.3482243017
794.1969,12.8021553198
795.1969,12.2729480561
796.1969,11.7603612783
797.1969,11.2641388894
798.1969,10.7840116444
799.1969,10.3196987738
800.1969,9.87090951549
801.1969,9.43734455344
802.1969,9.01869736415
803.1969,8.61465547176
804.1969,8.22490161357
805.1969,7.84911481825
806.1969,7.48697139932
807.1969,7.13814586693
808.1969,6.80231176137
809.1969,6.47914241193
810.1969,6.16831162489
811.1969,5.8694943048
812.1969,5.58236701288
813.1969,5.30660846701
814.1969,5.04189998716
815.1969,4.78792589058
816.1969,4.54437384075
817.1969,4.31093515399
818.1969,4.08730506756
819.1969,3.87318297297
820.1969,3.6682726179
821.1969,3.47228228004
822.1969,3.28492491593
823.1969,3.10591828769
824.1969,2.93498507027
825.1969,2.77185294154
826.1969,2.61625465763
827.1969,2.46792811525
828.1969,2.3266164029
829.1969,2.19206784249
830.1969,2.06403602263
831.1969,1.94227982489
832.1969,1.82656344386
833.1969,1.71665640191
834.1969,1.6123335593
835.1969,1.51337512012
836.1969,1.41956663446
837.1969,1.33069899716
838.1969,1.24656844323
839.1969,1.16697654012
840.1969,1.09173017688
841.1969,1.02064155002
842.1969,0.953528146378
843.1969,0.890212722436
844.1969,0.830523280344
845.1969,0.774293040313
846.1969,0.721360409315
847.1969,0.671568945937
848.1969,0.624767321291
849.1969,0.58080927585
850.1969,0.539553572146
851.1969,0.500863943276
852.1969,0.464609037172
853.1969,0.430662356666
854.1969,0.398902195359
855.1969,0.369211569396
856.1969,0.341478145227
857.1969,0.315594163512
858.1969,0.291456359333
859.1969,0.268965878925
860.1969,0.248028193154
861.1969,0.228553008007
862.1969,0.21045417238
863.1969,0.193649583483
864.1969,0.178061090177
865.1969,0.163614394605
866.1969,0.150238952476
867.1969,0.137867872366
868.1969,0.126437814438
869.1969,0.115888888955
870.1969,0.106164554977
871.1969,0.0972115196506
872.1969,0.0889796384605
873.1969,0.0814218168505
874.1969,0.0744939135774
875.1969,0.0681546461813
876.1969,0.0623654989289
877.1969,0.0570906335817
878.1969,0.052296803327
879.1969,0.0479532701914
880.1969,0.0440317262476
881.1969,0.0405062188994
882.1969,0.0373530805213
883.1969,0.0345508627026
884.1969,0.0320802753317
885.1969,0.0299241307328
886.1969,0.0280672930498
887.1969,0.0264966330463
888.1969,0.0252009884742
889.1969,0.024171130135
890.1969,0.0233997337403
891.1969,0.0228813576505
892.1969,0.0226124265468
893.1969,0.0225912210697
894.1969,0.0228178734262
895.1969,0.0232943689469
896.1969,0.0240245535412
897.1969,0.0250141469748
898.1969,0.0262707618621
899.1969,0.0278039282346
900.1969,0.0296251235173
901.1969,0.0317478077096
902.1969,0.0341874635337
903.1969,0.0369616412787
904.1969,0.0400900080307
905.1969,0.0435944009415
906.1969,0.0474988841487
907.1969,0.0518298089194
908.1969,0.0566158765492
909.1969,0.0618882035019
910.1969,0.0676803882356
911.1969,0.0740285791147
912.1969,0.0809715427594
913.1969,0.0885507321459
914.1969,0.0968103537177
915.1969,0.105797432728
916.1969,0.11556187599
917.1969,0.126156531158
918.1969,0.137637241647
919.1969,0.150062896213
920.1969,0.163495472238
921.1969,0.178000071671
922.1969,0.193644948586
923.1969,0.210501527278
924.1969,0.22864440979
925.1969,0.248151371747
926.1969,0.269103345388
927.1969,0.291584388633
928.1969,0.315681639081
929.1969,0.341485251793
930.1969,0.369088319782
931.1969,0.39858677611
932.1969,0.43007927657
933.1969,0.463667061961
934.1969,0.499453799011
935.1969,0.537545399091
936.1969,0.578049813928
937.1969,0.621076807624
938.1969,0.666737704372
939.1969,0.715145111414
940.1969,0.766412616841
941.1969,0.820654462061
942.1969,0.877985188819
943.1969,0.938519260876
944.1969,1.00237066059
945.1969,1.06965246083
946.1969,1.14047637283
947.1969,1.21495227082
948.1969,1.29318769438
949.1969,1.37528732987
950.1969,1.46135247216
951.1969,1.55148046852
952.1969,1.64576414642
953.1969,1.74429122729
954.1969,1.84714372866
955.1969,1.95439735703
956.1969,2.06612089435
957.1969,2.18237558086
958.1969,2.30321449748
959.1969,2.42868195111
960.1969,2.55881286603
961.1969,2.6936321853
962.1969,2.83315428562
963.1969,2.97738240973
964.1969,3.12630811998
965.1969,3.27991077738
966.1969,3.43815704993
967.1969,3.60100045436
968.1969,3.76838093537
969.1969,3.94022448617
970.1969,4.11644281457
971.1969,4.29693305804
972.1969,4.48157755175
973.1969,4.6702436529
974.1969,4.86278362473
975.1969,5.0590345833
976.1969,5.25881850977
977.1969,5.46194233084
978.1969,5.66819806938
979.1969,5.87736306726
980.1969,6.08920028169
981.1969,6.30345865633
982.1969,6.51987356755
983.1969,6.7381673463
984.1969,6.95804987517
985.1969,7.17921925993
986.1969,7.40136257436
987.1969,7.62415667665
988.1969,7.84726909512
989.1969,8.07035898064
990.1969,8.2930781225
991.1969,8.51507202404
992.1969,8.73598103404
993.1969,8.95544152907
994.1969,9.17308714201
995.1969,9.3885500311
996.1969,9.60146218386
997.1969,9.81145674975
998.1969,10.0181693949
999.1969,10.2212396724
1000.1969,10.4203124011
1001.1969,10.6150390457
1002.1969,10.8050790908
1003.1969,10.9901014017
1004.1969,11.1697855644
1005.1969,11.3438231968
1006.1969,11.5119192252
1007.1969,11.6737931163
1008.1969,11.8291800611
1009.1969,11.9778320994
1010.1969,12.1195191824
1011.1969,12.2540301645
1012.1969,12.381173718
1013.1969,12.5007791679
1014.1969,12.6126972375
1015.1969,12.7168007041
1016.1969,12.812984957
1017.1969,12.9011684572
1018.1969,12.9812930928
1019.1969,13.0533244305
1020.1969,13.1172518583
1021.1969,13.1730886203
1022.1969,13.2208717418
1023.1969,13.2606618449
1024.1969,13.2925428557
1025.1969,13.3166216027
1026.1969,13.3330273106
1027.1969,13.3419109897
1028.1969,13.3434447256
1029.1969,13.3378208717
1030.1969,13.3252511493
1031.1969,13.3059656597
1032.1969,13.280211814
1033.1969,13.2482531846
1034.1969,13.2103682877
1035.1969,13.1668492988
1036.1969,13.1180007125
1037.1969,13.0641379498
1038.1969,13.0055859232
1039.1969,12.9426775652
1040.1969,12.8757523285
1041.1969,12.8051546659
1042.1969,12.7312324972
1043.1969,12.6543356717
1044.1969,12.5748144334
1045.1969,12.4930178967
1046.1969,12.409292541
1047.1969,12.3239807307
1048.1969,12.2374192686
1049.1969,12.1499379891
1050.1969,12.0618583985
1051.1969,11.9734923688
1052.1969,11.8851408906
1053.1969,11.7970928915
1054.1969,11.709624125
1055.1969,11.622996135
1056.1969,11.5374553
1057.1969,11.4532319617
1058.1969,11.3705396413
1059.1969,11.2895743463
1060.1969,11.2105139708
1061.1969,11.1335177913
1062.1969,11.0587260595
1063.1969,10.9862596935
1064.1969,10.9162200671
1065.1969,10.8486888995
1066.1969,10.7837282414
1067.1969,10.7213805606
1068.1969,10.6616689223
1069.1969,10.6045972652
1070.1969,10.5501507681
1071.1969,10.4982963074
1072.1969,10.4489829995
1073.1969,10.4021428264
1074.1969,10.35769134
1075.1969,10.3155284406
1076.1969,10.2755392245
1077.1969,10.2375948974
1078.1969,10.201553746
1079.1969,10.1672621643
1080.1969,10.1345557278
1081.1969,10.1032603091
1082.1969,10.0731932307
1083.1969,10.0441644462
1084.1969,10.0159777455
1085.1969,9.98843197647
1086.1969,9.96132227659
1087.1969,9.9344413085
1088.1969,9.90758049236
1089.1969,9.88053122881
1090.1969,9.85308610611
1091.1969,9.82504008501
1092.1969,9.79619165539
1093.1969,9.76634395866
1094.1969,9.73530587004
1095.1969,9.70289303548
1096.1969,9.66892885785
1097.1969,9.6332454275
1098.1969,9.59568439273
1099.1969,9.55609776589
1100.1969,9.5143486613
1101.1969,9.47031196166
1102.1969,9.42387490987
1103.1969,9.37493762389
1104.1969,9.32341353233
1105.1969,9.2692297295
1106.1969,9.21232724853
